<?xml version="1.0" ?><!DOCTYPE RTKGEOMETRY><RTKThreeDCircularGeometry version="3">
    <SourceToIsocenterDistance>1000</SourceToIsocenterDistance>
    <SourceToDetectorDistance>1536</SourceToDetectorDistance>
  <Projection>
    <GantryAngle>179.92291</GantryAngle>
    <ProjectionOffsetX>-114.359</ProjectionOffsetX>
    <ProjectionOffsetY>0.005</ProjectionOffsetY>
    <Matrix>
         1536.15247674031                   0   -112.292248555367             -114359
      -6.72736957205062e-06               -1536 0.00499999547424782                   5
      0.00134547391441012                   0  -0.999999094849563               -1000
    </Matrix>
  </Projection>
  
  
  
  <Projection>
    <GantryAngle>180.26299</GantryAngle>
    <ProjectionOffsetX>-114.37611</ProjectionOffsetX>
    <ProjectionOffsetY>0.01867</ProjectionOffsetY>
    <Matrix>
         1535.45883019914                   0   -121.425183970339          -114376.11
      8.56957720206182e-05               -1536   0.018669803326084               18.67
      -0.00459002528230413                   0  -0.999989465778469               -1000
    </Matrix>
  </Projection>
  
  
  
  <Projection>
    <GantryAngle>182.37961</GantryAngle>
    <ProjectionOffsetX>-114.4089</ProjectionOffsetX>
    <ProjectionOffsetY>0.1169</ProjectionOffsetY>
    <Matrix>
         1529.92519204352                   0   -178.085100864211           -114408.9
      0.00485369859246199               -1536   0.116799193533061               116.9
      -0.0415200906113087                   0  -0.999137669230637               -1000
    </Matrix>
  </Projection>
  
  
  
  <Projection>
    <GantryAngle>185.21896</GantryAngle>
    <ProjectionOffsetX>-114.45911</ProjectionOffsetX>
    <ProjectionOffsetY>0.19089</ProjectionOffsetY>
    <Matrix>
         1519.22084119547                   0   -253.702431086747          -114459.11
        0.017363760565003               -1536   0.190098637341358              190.89
      -0.0909621277437423                   0  -0.995854352461408               -1000
    </Matrix>
  </Projection>
  
  
  
  <Projection>
    <GantryAngle>187.87395</GantryAngle>
    <ProjectionOffsetX>-114.5146</ProjectionOffsetX>
    <ProjectionOffsetY>0.24363</ProjectionOffsetY>
    <Matrix>
         1505.83052867949                   0   -323.858012885309           -114514.6
       0.0333758941509984               -1536   0.241333020097999              243.63
       -0.136994188527679                   0  -0.990571851159542               -1000
    </Matrix>
  </Projection>
  
  
  
  <Projection>
    <GantryAngle>189.97783</GantryAngle>
    <ProjectionOffsetX>-114.52882</ProjectionOffsetX>
    <ProjectionOffsetY>0.27268</ProjectionOffsetY>
    <Matrix>
         1492.92372435269                   0   -378.934828005408          -114528.82
       0.0472464738265981               -1536   0.268555679722013              272.68
       -0.173267103662161                   0  -0.984874870624957               -1000
    </Matrix>
  </Projection>
  
  
  
  <Projection>
    <GantryAngle>192.14694</GantryAngle>
    <ProjectionOffsetX>-114.51548</ProjectionOffsetX>
    <ProjectionOffsetY>0.32683</ProjectionOffsetY>
    <Matrix>
         1477.51447232281                   0   -435.156040100868          -114515.48
       0.0687714211237995               -1536   0.319512660995794              326.83
        -0.21041954876786                   0  -0.977611177051659               -1000
    </Matrix>
  </Projection>
  
  
  
  <Projection>
    <GantryAngle>194.31749</GantryAngle>
    <ProjectionOffsetX>-114.50799</ProjectionOffsetX>
    <ProjectionOffsetY>0.3437</ProjectionOffsetY>
    <Matrix>
         1459.97505147188                   0   -490.796219273875          -114507.99
       0.0849952231373131               -1536   0.333024776921836               343.7
       -0.247294801097798                   0  -0.968940287814476               -1000
    </Matrix>
  </Projection>
  
  
  
  <Projection>
    <GantryAngle>196.44202</GantryAngle>
    <ProjectionOffsetX>-114.49409</ProjectionOffsetX>
    <ProjectionOffsetY>0.3936</ProjectionOffsetY>
    <Matrix>
         1440.78084416875                   0   -544.569055052987          -114494.09
        0.111406484284802               -1536   0.377504377801503               393.6
       -0.283044929585372                   0  -0.959106650918453               -1000
    </Matrix>
  </Projection>
  
  
  
  <Projection>
    <GantryAngle>198.53137</GantryAngle>
    <ProjectionOffsetX>-114.48568</ProjectionOffsetX>
    <ProjectionOffsetY>0.43339</ProjectionOffsetY>
    <Matrix>
         1419.97179403256                   0   -596.726968618836          -114485.68
        0.137741667647755               -1536   0.410918635612472              433.39
       -0.317823825302279                   0  -0.948149785672194               -1000
    </Matrix>
  </Projection>
  
  
  
  <Projection>
    <GantryAngle>200.68413</GantryAngle>
    <ProjectionOffsetX>-114.56453</ProjectionOffsetX>
    <ProjectionOffsetY>0.49753</ProjectionOffsetY>
    <Matrix>
         1396.52636726162                   0   -649.719275593067          -114564.53
        0.175735420866038               -1536   0.465460162369495              497.53
       -0.353215727425557                   0  -0.935541901733554               -1000
    </Matrix>
  </Projection>
  
  
  
  <Projection>
    <GantryAngle>202.86899</GantryAngle>
    <ProjectionOffsetX>-114.56123</ProjectionOffsetX>
    <ProjectionOffsetY>0.52646</ProjectionOffsetY>
    <Matrix>
          1370.7426687718                   0   -702.484741063812          -114561.23
        0.204595687613049               -1536   0.485078072283363              526.46
       -0.388625323126257                   0  -0.921395874868676               -1000
    </Matrix>
  </Projection>
  
  
  
  <Projection>
    <GantryAngle>205.0148</GantryAngle>
    <ProjectionOffsetX>-114.56694</ProjectionOffsetX>
    <ProjectionOffsetY>0.5624</ProjectionOffsetY>
    <Matrix>
         1343.47613512581                   0   -753.321616634208          -114566.94
        0.237812164368569               -1536   0.509646087474766               562.4
       -0.422852354851652                   0  -0.906198590815729               -1000
    </Matrix>
  </Projection>
  
  
  
  <Projection>
    <GantryAngle>207.12961</GantryAngle>
    <ProjectionOffsetX>-114.58633</ProjectionOffsetX>
    <ProjectionOffsetY>0.59311</ProjectionOffsetY>
    <Matrix>
         1314.75314908058                   0   -802.402756728536          -114586.33
           0.270461066968               -1536   0.527854414923784              593.11
       -0.456004901229115                   0  -0.889977263785444               -1000
    </Matrix>
  </Projection>
  
  
  
  <Projection>
    <GantryAngle>209.27753</GantryAngle>
    <ProjectionOffsetX>-114.57779</ProjectionOffsetX>
    <ProjectionOffsetY>0.60049</ProjectionOffsetY>
    <Matrix>
         1283.75992500436                   0   -851.107822143643          -114577.79
        0.293663875762259               -1536   0.523784085451523              600.49
       -0.489040409935651                   0  -0.872261129163722               -1000
    </Matrix>
  </Projection>
  
  
  
  <Projection>
    <GantryAngle>211.43561</GantryAngle>
    <ProjectionOffsetX>-114.57954</ProjectionOffsetX>
    <ProjectionOffsetY>0.62829</ProjectionOffsetY>
    <Matrix>
          1250.7985778028                   0   -898.847811786342          -114579.54
        0.327678381067196               -1536   0.536073878006737              628.29
       -0.521540023026303                   0  -0.853226818836424               -1000
    </Matrix>
  </Projection>
  
  
  
  <Projection>
    <GantryAngle>213.61618</GantryAngle>
    <ProjectionOffsetX>-114.58776</ProjectionOffsetX>
    <ProjectionOffsetY>0.66214</ProjectionOffsetY>
    <Matrix>
         1215.68808898959                   0   -945.795339928603          -114587.76
        0.366578409201754               -1536   0.551406972668202              662.14
       -0.553626739362906                   0  -0.832764932896671               -1000
    </Matrix>
  </Projection>
  
  
  
  <Projection>
    <GantryAngle>215.74699</GantryAngle>
    <ProjectionOffsetX>-114.57491</ProjectionOffsetX>
    <ProjectionOffsetY>0.70122</ProjectionOffsetY>
    <Matrix>
         1179.68931155127                   0   -990.331529445163          -114574.91
        0.409657653065075               -1536   0.569113429542138              701.22
       -0.584207029270522                   0  -0.811604674056841               -1000
    </Matrix>
  </Projection>
  
  
  
  <Projection>
    <GantryAngle>217.84256</GantryAngle>
    <ProjectionOffsetX>-114.551</ProjectionOffsetX>
    <ProjectionOffsetY>0.706</ProjectionOffsetY>
    <Matrix>
         1142.70213143836                   0   -1032.78737908983             -114551
        0.433126637791687               -1536   0.557527860860127                 706
       -0.613493821234684                   0  -0.789699519631907               -1000
    </Matrix>
  </Projection>
  
  
  
  <Projection>
    <GantryAngle>219.99213</GantryAngle>
    <ProjectionOffsetX>-114.52079</ProjectionOffsetX>
    <ProjectionOffsetY>0.75142</ProjectionOffsetY>
    <Matrix>
         1103.17937541743                   0   -1074.89826355606          -114520.79
        0.482924395287694               -1536   0.575687454124211              751.42
       -0.642682381740829                   0  -0.766132727534815               -1000
    </Matrix>
  </Projection>
  
  
  
  <Projection>
    <GantryAngle>222.16718</GantryAngle>
    <ProjectionOffsetX>-114.43957</ProjectionOffsetX>
    <ProjectionOffsetY>0.78941</ProjectionOffsetY>
    <Matrix>
         1061.64384365765                   0   -1115.93224006012          -114439.57
        0.529927880850968               -1536   0.585102204060796              789.41
       -0.671296133632673                   0  -0.741189247742994               -1000
    </Matrix>
  </Projection>
  
  
  
  <Projection>
    <GantryAngle>224.34886</GantryAngle>
    <ProjectionOffsetX>-114.37716</ProjectionOffsetX>
    <ProjectionOffsetY>0.80625</ProjectionOffsetY>
    <Matrix>
         1018.43628465405                   0   -1155.49369051921          -114377.16
        0.563589189387745               -1536   0.576546865489064              806.25
       -0.699025351178598                   0  -0.715096887428297               -1000
    </Matrix>
  </Projection>
  
  
  
  <Projection>
    <GantryAngle>226.47314</GantryAngle>
    <ProjectionOffsetX>-114.37598</ProjectionOffsetX>
    <ProjectionOffsetY>0.8517</ProjectionOffsetY>
    <Matrix>
         974.906345640966                   0   -1192.44936245945          -114375.98
        0.617526442467113               -1536     0.5865611501403               851.7
       -0.725051593832468                   0  -0.688694552237055               -1000
    </Matrix>
  </Projection>
  
  
  
  <Projection>
    <GantryAngle>228.60258</GantryAngle>
    <ProjectionOffsetX>-114.36258</ProjectionOffsetX>
    <ProjectionOffsetY>0.87028</ProjectionOffsetY>
    <Matrix>
         929.935099774174                   0   -1227.84180980786          -114362.58
        0.652832576683193               -1536    0.57549709401628              870.28
       -0.750140847409102                   0  -0.661278087530772               -1000
    </Matrix>
  </Projection>
  
  
  
  <Projection>
    <GantryAngle>230.7551</GantryAngle>
    <ProjectionOffsetX>-114.37242</ProjectionOffsetX>
    <ProjectionOffsetY>0.88923</ProjectionOffsetY>
    <Matrix>
         883.153902588327                   0   -1261.90975699519          -114372.42
        0.688663248033278               -1536   0.562559262396644              889.23
       -0.774448959249326                   0  -0.632636395979267               -1000
    </Matrix>
  </Projection>
  
  
  
  <Projection>
    <GantryAngle>232.934</GantryAngle>
    <ProjectionOffsetX>-114.41425</ProjectionOffsetX>
    <ProjectionOffsetY>0.95906</ProjectionOffsetY>
    <Matrix>
         834.504418056011                   0   -1294.59993698751          -114414.25
        0.765274004397326               -1536   0.578058631795843              959.06
       -0.797941739200181                   0  -0.602734585735869               -1000
    </Matrix>
  </Projection>
  
  
  
  <Projection>
    <GantryAngle>235.08051</GantryAngle>
    <ProjectionOffsetX>-114.34576</ProjectionOffsetX>
    <ProjectionOffsetY>0.97009</ProjectionOffsetY>
    <Matrix>
         785.485904590973                   0   -1324.90861817669          -114345.76
        0.795432284623889               -1536    0.55530360045476              970.09
       -0.819957204613891                   0  -0.572424827031265               -1000
    </Matrix>
  </Projection>
  
  
  
  <Projection>
    <GantryAngle>237.15926</GantryAngle>
    <ProjectionOffsetX>-114.38099</ProjectionOffsetX>
    <ProjectionOffsetY>0.9931</ProjectionOffsetY>
    <Matrix>
         736.880882171337                   0     -1352.547809271          -114380.99
        0.834383960610126               -1536   0.538563846054077               993.1
        -0.84018121096579                   0  -0.542305755768882               -1000
    </Matrix>
  </Projection>
  
  
  
  <Projection>
    <GantryAngle>239.3004</GantryAngle>
    <ProjectionOffsetX>-114.40372</ProjectionOffsetX>
    <ProjectionOffsetY>1.00865</ProjectionOffsetY>
    <Matrix>
         685.813995153176                   0   -1379.14588612006          -114403.72
        0.867293588817873               -1536   0.514953059312608             1008.65
       -0.859855835837875                   0  -0.510536914997877               -1000
    </Matrix>
  </Projection>
  
  
  
  <Projection>
    <GantryAngle>241.44624</GantryAngle>
    <ProjectionOffsetX>-114.2919</ProjectionOffsetX>
    <ProjectionOffsetY>1.02035</ProjectionOffsetY>
    <Matrix>
         633.791631236839                   0   -1403.80440467316           -114291.9
        0.896243822475388               -1536   0.487710091319325             1020.35
       -0.878369013059625                   0  -0.477983134531607               -1000
    </Matrix>
  </Projection>
  
  
  
  <Projection>
    <GantryAngle>243.61991</GantryAngle>
    <ProjectionOffsetX>-114.31438</ProjectionOffsetX>
    <ProjectionOffsetY>1.05183</ProjectionOffsetY>
    <Matrix>
         580.071114804221                   0   -1426.84311654946          -114314.38
        0.942298960589052               -1536   0.467353204517517             1051.83
        -0.89586621468208                   0   -0.44432389693916               -1000
    </Matrix>
  </Projection>
  
  
  
  <Projection>
    <GantryAngle>245.7522</GantryAngle>
    <ProjectionOffsetX>-114.29991</ProjectionOffsetX>
    <ProjectionOffsetY>1.06609</ProjectionOffsetY>
    <Matrix>
         526.594261087061                   0   -1447.43184765853          -114299.91
         0.97203720906284               -1536   0.437825938356015             1066.09
       -0.911777813376769                   0  -0.410683843161473               -1000
    </Matrix>
  </Projection>
  
  
  
  <Projection>
    <GantryAngle>247.87129</GantryAngle>
    <ProjectionOffsetX>-114.20746</ProjectionOffsetX>
    <ProjectionOffsetY>1.03224</ProjectionOffsetY>
    <Matrix>
         472.798574446002                   0   -1465.87886672858          -114207.46
        0.956205196017249               -1536   0.388832921329475             1032.24
       -0.926339994591616                   0  -0.376688484586409               -1000
    </Matrix>
  </Projection>
  
  
  
  <Projection>
    <GantryAngle>250.01909</GantryAngle>
    <ProjectionOffsetX>-114.23576</ProjectionOffsetX>
    <ProjectionOffsetY>1.05334</ProjectionOffsetY>
    <Matrix>
         417.502492323729                   0   -1482.57798370482          -114235.76
        0.989935804036698               -1536    0.35993368762345             1053.34
       -0.939806524044182                   0  -0.341707034408121               -1000
    </Matrix>
  </Projection>
  
  
  
  <Projection>
    <GantryAngle>252.1861</GantryAngle>
    <ProjectionOffsetX>-114.27885</ProjectionOffsetX>
    <ProjectionOffsetY>1.08249</ProjectionOffsetY>
    <Matrix>
         361.102997412257                   0     -1497.317695353          -114278.85
         1.03059023648856               -1536   0.331162142393187             1082.49
       -0.952055202808861                   0  -0.305926283285007               -1000
    </Matrix>
  </Projection>
  
  
  
  <Projection>
    <GantryAngle>254.35343</GantryAngle>
    <ProjectionOffsetX>-114.1967</ProjectionOffsetX>
    <ProjectionOffsetY>1.01735</ProjectionOffsetY>
    <Matrix>
         304.298188872876                   0   -1509.88062393673           -114196.7
        0.979650743369322               -1536   0.274381930009859             1017.35
       -0.962943670682972                   0  -0.269702590072108               -1000
    </Matrix>
  </Projection>
  
  
  
  <Projection>
    <GantryAngle>256.48066</GantryAngle>
    <ProjectionOffsetX>-114.22057</ProjectionOffsetX>
    <ProjectionOffsetY>1.05499</ProjectionOffsetY>
    <Matrix>
         248.020564929392                   0   -1520.14082833902          -114220.57
         1.02575735203314               -1536   0.246628779443864             1054.99
       -0.972291066297439                   0  -0.233773570786324               -1000
    </Matrix>
  </Projection>
  
  
  
  <Projection>
    <GantryAngle>258.5646</GantryAngle>
    <ProjectionOffsetX>-114.19912</ProjectionOffsetX>
    <ProjectionOffsetY>1.05401</ProjectionOffsetY>
    <Matrix>
         192.599768303311                   0   -1528.15011312969          -114199.12
         1.03308670585323               -1536   0.208971142240566             1054.01
       -0.980148865621035                   0  -0.198262959782703               -1000
    </Matrix>
  </Projection>
  
  
  
  <Projection>
    <GantryAngle>260.70972</GantryAngle>
    <ProjectionOffsetX>-114.14938</ProjectionOffsetX>
    <ProjectionOffsetY>1.01915</ProjectionOffsetY>
    <Matrix>
         135.314218459282                   0   -1534.28033397979          -114149.38
         1.00578192935127               -1536   0.164527909761346             1019.15
       -0.986883117648305                   0  -0.161436402650588               -1000
    </Matrix>
  </Projection>
  
  
  
  <Projection>
    <GantryAngle>262.88474</GantryAngle>
    <ProjectionOffsetX>-114.0718</ProjectionOffsetX>
    <ProjectionOffsetY>1.05731</ProjectionOffsetY>
    <Matrix>
         77.0644874527735                   0    -1538.3008289437           -114071.8
         1.04916763772993               -1536    0.13096451443118             1057.31
       -0.992298983013432                   0  -0.123865767306826               -1000
    </Matrix>
  </Projection>
  
  
  
  <Projection>
    <GantryAngle>265.05008</GantryAngle>
    <ProjectionOffsetX>-113.93319</ProjectionOffsetX>
    <ProjectionOffsetY>1.03392</ProjectionOffsetY>
    <Matrix>
         19.0254453809437                   0   -1540.10220576806          -113933.19
          1.0300639922277               -1536  0.0892117610852231             1033.92
       -0.996270496970465                   0 -0.0862849747419753               -1000
    </Matrix>
  </Projection>
  
  
  
  <Projection>
    <GantryAngle>267.16627</GantryAngle>
    <ProjectionOffsetX>-113.95565</ProjectionOffsetX>
    <ProjectionOffsetY>1.01132</ProjectionOffsetY>
    <Matrix>
        -37.8799094341765                   0    -1539.7555009248          -113955.65
         1.01008336440534               -1536  0.0499973934479337             1011.32
       -0.998777206428569                   0 -0.0494377580270673               -1000
    </Matrix>
  </Projection>
  
  
  
  <Projection>
    <GantryAngle>269.2901</GantryAngle>
    <ProjectionOffsetX>-113.82191</ProjectionOffsetX>
    <ProjectionOffsetY>1.00237</ProjectionOffsetY>
    <Matrix>
        -94.7824785194516                   0   -1537.29233035287          -113821.91
         1.00229306187537               -1536  0.0124191391203518             1002.37
       -0.999923243787596                   0 -0.0123897753527658               -1000
    </Matrix>
  </Projection>
  
  
  
  <Projection>
    <GantryAngle>271.43882</GantryAngle>
    <ProjectionOffsetX>-113.80537</ProjectionOffsetX>
    <ProjectionOffsetY>1.00078</ProjectionOffsetY>
    <Matrix>
        -152.337690759972                   0   -1532.65811263137          -113805.37
         1.00046446069389               -1536 -0.0251290924724261             1000.78
       -0.999684706622722                   0  0.0251095070569217               -1000
    </Matrix>
  </Projection>
  
  
  
  <Projection>
    <GantryAngle>273.61792</GantryAngle>
    <ProjectionOffsetX>-113.7656</ProjectionOffsetX>
    <ProjectionOffsetY>0.95528</ProjectionOffsetY>
    <Matrix>
        -210.464559106298                   0   -1525.75990283647           -113765.6
        0.953376166187021               -1536 -0.0602807112311835              955.28
       -0.998007041063375                   0  0.0631026622887358               -1000
    </Matrix>
  </Projection>
  
  
  
  <Projection>
    <GantryAngle>275.75038</GantryAngle>
    <ProjectionOffsetX>-113.73058</ProjectionOffsetX>
    <ProjectionOffsetY>0.94799</ProjectionOffsetY>
    <Matrix>
        -267.057269603243                   0   -1516.87542651966          -113730.58
        0.943219575682758               -1536 -0.0949835361988441              947.99
       -0.994967853756641                   0    0.10019466049098               -1000
    </Matrix>
  </Projection>
  
  
  
  <Projection>
    <GantryAngle>277.84154</GantryAngle>
    <ProjectionOffsetX>-113.69292</ProjectionOffsetX>
    <ProjectionOffsetY>0.93724</ProjectionOffsetY>
    <Matrix>
         -322.19217457581                   0   -1506.12558662956          -113692.92
        0.928476042126916               -1536  -0.127871250859362              937.24
        -0.99064918497601                   0   0.136433838567882               -1000
    </Matrix>
  </Projection>
  
  
  
  <Projection>
    <GantryAngle>279.98046</GantryAngle>
    <ProjectionOffsetX>-113.59671</ProjectionOffsetX>
    <ProjectionOffsetY>0.86922</ProjectionOffsetY>
    <Matrix>
        -378.085351727524                   0   -1493.06787499159          -113596.71
        0.856066020945599               -1536  -0.150646527282804              869.22
       -0.984866916253192                   0   0.173312311362836               -1000
    </Matrix>
  </Projection>
  
  
  
  <Projection>
    <GantryAngle>282.15257</GantryAngle>
    <ProjectionOffsetX>-113.59027</ProjectionOffsetX>
    <ProjectionOffsetY>0.8714</ProjectionOffsetY>
    <Matrix>
        -434.396745078529                   0   -1477.66647701836          -113590.27
        0.851872358282894               -1536  -0.183443302394883               871.4
       -0.977590496078602                   0     0.2105156098174               -1000
    </Matrix>
  </Projection>
  
  
  
  <Projection>
    <GantryAngle>284.31511</GantryAngle>
    <ProjectionOffsetX>-113.56319</ProjectionOffsetX>
    <ProjectionOffsetY>0.85994</ProjectionOffsetY>
    <Matrix>
        -489.820108697507                   0     -1460.229043417          -113563.19
        0.833239343978861               -1536  -0.212624079646867              859.94
       -0.968950559316768                   0   0.247254552232559               -1000
    </Matrix>
  </Projection>
  
  
  
  <Projection>
    <GantryAngle>286.43278</GantryAngle>
    <ProjectionOffsetX>-113.53925</ProjectionOffsetX>
    <ProjectionOffsetY>0.8543</ProjectionOffsetY>
    <Matrix>
        -543.420858550611                   0   -1441.13876215397          -113539.25
        0.819403796781339               -1536  -0.241673142530001               854.3
        -0.95915228465567                   0   0.282890252288424               -1000
    </Matrix>
  </Projection>
  
  
  
  <Projection>
    <GantryAngle>288.5482</GantryAngle>
    <ProjectionOffsetX>-113.50836</ProjectionOffsetX>
    <ProjectionOffsetY>0.84663</ProjectionOffsetY>
    <Matrix>
        -596.217489372028                   0   -1420.10733860395          -113508.36
        0.802652979386496               -1536  -0.269314967244639              846.63
       -0.948056387544141                   0   0.318102320074459               -1000
    </Matrix>
  </Projection>
  
  
  
  <Projection>
    <GantryAngle>290.67934</GantryAngle>
    <ProjectionOffsetX>-113.4931</ProjectionOffsetX>
    <ProjectionOffsetY>0.8293</ProjectionOffsetY>
    <Matrix>
        -648.600122648345                   0   -1396.95904186492           -113493.1
        0.775869385031414               -1536  -0.292856940110653               829.3
       -0.935571427747998                   0   0.353137513699088               -1000
    </Matrix>
  </Projection>
  
  
  
  <Projection>
    <GantryAngle>292.83503</GantryAngle>
    <ProjectionOffsetX>-113.47626</ProjectionOffsetX>
    <ProjectionOffsetY>0.81371</ProjectionOffsetY>
    <Matrix>
        -700.672222978724                   0   -1371.57985459456          -113476.26
        0.749936338520082               -1536   -0.31578386954861              813.71
       -0.921626056605033                   0   0.388079130831143               -1000
    </Matrix>
  </Projection>
  
  
  
  <Projection>
    <GantryAngle>294.98618</GantryAngle>
    <ProjectionOffsetX>-113.41412</ProjectionOffsetX>
    <ProjectionOffsetY>0.82691</ProjectionOffsetY>
    <Matrix>
        -751.605511345744                   0   -1344.33921237539          -113414.12
        0.749519243455017               -1536  -0.349286489562105              826.91
       -0.906409698098968                   0   0.422399643929938               -1000
    </Matrix>
  </Projection>
  
  
  
  <Projection>
    <GantryAngle>297.07323</GantryAngle>
    <ProjectionOffsetX>-113.37669</ProjectionOffsetX>
    <ProjectionOffsetY>0.81185</ProjectionOffsetY>
    <Matrix>
        -800.031535131163                   0   -1316.09263223796          -113376.69
        0.722891982152762               -1536  -0.369496420333474              811.85
       -0.890425549242793                   0   0.455128928168348               -1000
    </Matrix>
  </Projection>
  
  
  
  <Projection>
    <GantryAngle>299.18526</GantryAngle>
    <ProjectionOffsetX>-113.31978</ProjectionOffsetX>
    <ProjectionOffsetY>0.76969</ProjectionOffsetY>
    <Matrix>
        -847.941030208437                   0   -1285.74234659527          -113319.78
        0.671975973304592               -1536  -0.375327839896465              769.69
       -0.873047555905094                   0   0.487635073726389               -1000
    </Matrix>
  </Projection>
  
  
  
  <Projection>
    <GantryAngle>301.33119</GantryAngle>
    <ProjectionOffsetX>-113.26743</ProjectionOffsetX>
    <ProjectionOffsetY>0.80632</ProjectionOffsetY>
    <Matrix>
        -895.446001204286                   0   -1253.11690181964          -113267.43
        0.688739106739199               -1536  -0.419273640058721              806.32
       -0.854175893862485                   0   0.519984175090189               -1000
    </Matrix>
  </Projection>
  
  
  
  <Projection>
    <GantryAngle>303.49812</GantryAngle>
    <ProjectionOffsetX>-113.18303</ProjectionOffsetX>
    <ProjectionOffsetY>0.77494</ProjectionOffsetY>
    <Matrix>
        -942.116955273697                   0   -1218.40963590485          -113183.03
        0.646225512970671               -1536  -0.427696843553694              774.94
       -0.833903931879463                   0   0.551909623394964               -1000
    </Matrix>
  </Projection>
  
  
  
  <Projection>
    <GantryAngle>305.61723</GantryAngle>
    <ProjectionOffsetX>-113.16663</ProjectionOffsetX>
    <ProjectionOffsetY>0.7723</ProjectionOffsetY>
    <Matrix>
        -986.512476371502                   0   -1182.74926341508          -113166.63
        0.627822493497334               -1536  -0.449762389110951               772.3
       -0.812925668130692                   0   0.582367459680112               -1000
    </Matrix>
  </Projection>
  
  
  
  <Projection>
    <GantryAngle>307.72312</GantryAngle>
    <ProjectionOffsetX>-113.11275</ProjectionOffsetX>
    <ProjectionOffsetY>0.77891</ProjectionOffsetY>
    <Matrix>
        -1029.26541335035                   0   -1145.73260540725          -113112.75
        0.616099665362283               -1536  -0.476573174277029              778.91
        -0.79097670509081                   0   0.611846265007547               -1000
    </Matrix>
  </Projection>
  
  
  
  <Projection>
    <GantryAngle>309.84015</GantryAngle>
    <ProjectionOffsetX>-113.06252</ProjectionOffsetX>
    <ProjectionOffsetY>0.78414</ProjectionOffsetY>
    <Matrix>
        -1070.84853506637                   0   -1106.96095160351          -113062.52
        0.602089963072554               -1536  -0.502357657418786              784.14
       -0.767834778320905                   0   0.640647916722506               -1000
    </Matrix>
  </Projection>
  
  
  
  <Projection>
    <GantryAngle>311.97356</GantryAngle>
    <ProjectionOffsetX>-112.98228</ProjectionOffsetX>
    <ProjectionOffsetY>0.77773</ProjectionOffsetY>
    <Matrix>
        -1111.25482775272                   0    -1066.3834692034          -112982.28
        0.578206111344999               -1536  -0.520136179959916              777.73
       -0.743453526731641                   0   0.668787599758163               -1000
    </Matrix>
  </Projection>
  
  
  
  <Projection>
    <GantryAngle>314.11203</GantryAngle>
    <ProjectionOffsetX>-112.87032</ProjectionOffsetX>
