<?xml version="1.0"?>
<!DOCTYPE RTKGEOMETRY>
<RTKThreeDCircularGeometry version="3">
    <SourceToIsocenterDistance>1000</SourceToIsocenterDistance>
    <SourceToDetectorDistance>1536</SourceToDetectorDistance>
  <Projection>
    <GantryAngle>179.92291</GantryAngle>
    <ProjectionOffsetX>-114.359</ProjectionOffsetX>
    <ProjectionOffsetY>0.005</ProjectionOffsetY>
    <Matrix>
         1536.15247674031                   0   -112.292248555367             -114359
      -6.72736957205062e-06               -1536 0.00499999547424782                   5
      0.00134547391441012                   0  -0.999999094849563               -1000
    </Matrix>
  </Projection>
  <Projection>
    <GantryAngle>179.92291</GantryAngle>
    <ProjectionOffsetX>-114.359</ProjectionOffsetX>
    <ProjectionOffsetY>0.005</ProjectionOffsetY>
    <Matrix>
         1536.15247674031                   0   -112.292248555367             -114359
      -6.72736957205062e-06               -1536 0.00499999547424782                   5
      0.00134547391441012                   0  -0.999999094849563               -1000
    </Matrix>
  </Projection>
  <Projection>
    <GantryAngle>179.92291</GantryAngle>
    <ProjectionOffsetX>-114.359</ProjectionOffsetX>
    <ProjectionOffsetY>0.005</ProjectionOffsetY>
    <Matrix>
         1536.15247674031                   0   -112.292248555367             -114359
      -6.72736957205062e-06               -1536 0.00499999547424782                   5
      0.00134547391441012                   0  -0.999999094849563               -1000
    </Matrix>
  </Projection>
  <Projection>
    <GantryAngle>179.99132</GantryAngle>
    <ProjectionOffsetX>-114.359</ProjectionOffsetX>
    <ProjectionOffsetY>0.005</ProjectionOffsetY>
    <Matrix>
         1536.01730714244                   0   -114.126303015129             -114359
      -7.5747289246841e-07               -1536 0.00499999994262348                   5
      0.000151494578493682                   0  -0.999999988524696               -1000
    </Matrix>
  </Projection>
  <Projection>
    <GantryAngle>180.26299</GantryAngle>
    <ProjectionOffsetX>-114.37611</ProjectionOffsetX>
    <ProjectionOffsetY>0.01867</ProjectionOffsetY>
    <Matrix>
         1535.45883019914                   0   -121.425183970339          -114376.11
      8.56957720206182e-05               -1536   0.018669803326084               18.67
      -0.00459002528230413                   0  -0.999989465778469               -1000
    </Matrix>
  </Projection>
  <Projection>
    <GantryAngle>180.69582</GantryAngle>
    <ProjectionOffsetX>-114.37658</ProjectionOffsetX>
    <ProjectionOffsetY>0.06342</ProjectionOffsetY>
    <Matrix>
         1534.49773765397                   0   -133.021408755668          -114376.58
      0.000770175745159999               -1536  0.0634153233006153               63.42
      -0.0121440514847051                   0  -0.999926258287848               -1000
    </Matrix>
  </Projection>
  <Projection>
    <GantryAngle>181.23225</GantryAngle>
    <ProjectionOffsetX>-114.38553</ProjectionOffsetX>
    <ProjectionOffsetY>0.09857</ProjectionOffsetY>
    <Matrix>
         1533.18490111541                   0   -147.391005373858          -114385.53
      0.00211976379601442               -1536  0.0985472044324399               98.57
      -0.0215051617735053                   0  -0.999768737267322               -1000
    </Matrix>
  </Projection>
  <Projection>
    <GantryAngle>181.81967</GantryAngle>
    <ProjectionOffsetX>-114.3997</ProjectionOffsetX>
    <ProjectionOffsetY>0.11462</ProjectionOffsetY>
    <Matrix>
         1531.59278682204                   0   -163.115991597317           -114399.7
      0.00363963133982953               -1536   0.114562199192012              114.62
      -0.0317538940833147                   0  -0.999495717955082               -1000
    </Matrix>
  </Projection>
  <Projection>
    <GantryAngle>182.37961</GantryAngle>
    <ProjectionOffsetX>-114.4089</ProjectionOffsetX>
    <ProjectionOffsetY>0.1169</ProjectionOffsetY>
    <Matrix>
         1529.92519204352                   0   -178.085100864211           -114408.9
      0.00485369859246199               -1536   0.116799193533061               116.9
      -0.0415200906113087                   0  -0.999137669230637               -1000
    </Matrix>
  </Projection>
  <Projection>
    <GantryAngle>183.0118</GantryAngle>
    <ProjectionOffsetX>-114.42725</ProjectionOffsetX>
    <ProjectionOffsetY>0.12229</ProjectionOffsetY>
    <Matrix>
         1527.86618374493                   0   -194.973126638716          -114427.25
      0.00642531492228728               -1536   0.122121085108795              122.29
      -0.0525416217375687                   0  -0.998618735046157               -1000
    </Matrix>
  </Projection>
  <Projection>
    <GantryAngle>183.74519</GantryAngle>
    <ProjectionOffsetX>-114.45147</ProjectionOffsetX>
    <ProjectionOffsetY>0.15782</ProjectionOffsetY>
    <Matrix>
         1525.24383768859                   0   -214.537583136706          -114451.47
       0.0103087011437717               -1536   0.157482961239394              157.82
      -0.0653193584068668                   0  -0.997864410337053               -1000
    </Matrix>
  </Projection>
  <Projection>
    <GantryAngle>184.49585</GantryAngle>
    <ProjectionOffsetX>-114.4504</ProjectionOffsetX>
    <ProjectionOffsetY>0.17613</ProjectionOffsetY>
    <Matrix>
         1522.30233886154                   0   -234.500497135584           -114450.4
       0.0138062825199006               -1536   0.175588050456119              176.13
      -0.0783868876392471                   0  -0.996923014001699               -1000
    </Matrix>
  </Projection>
  <Projection>
    <GantryAngle>185.21896</GantryAngle>
    <ProjectionOffsetX>-114.45911</ProjectionOffsetX>
    <ProjectionOffsetY>0.19089</ProjectionOffsetY>
    <Matrix>
         1519.22084119547                   0   -253.702431086747          -114459.11
        0.017363760565003               -1536   0.190098637341358              190.89
      -0.0909621277437423                   0  -0.995854352461408               -1000
    </Matrix>
  </Projection>
  <Projection>
    <GantryAngle>185.9516</GantryAngle>
    <ProjectionOffsetX>-114.4793</ProjectionOffsetX>
    <ProjectionOffsetY>0.20565</ProjectionOffsetY>
    <Matrix>
         1515.85054833671                   0   -273.127488978644           -114479.3
       0.0213235018327607               -1536   0.204541513560422              205.65
       -0.103688314285245                   0  -0.994609839826997               -1000
    </Matrix>
  </Projection>
  <Projection>
    <GantryAngle>186.68683</GantryAngle>
    <ProjectionOffsetX>-114.48457</ProjectionOffsetX>
    <ProjectionOffsetY>0.21684</ProjectionOffsetY>
    <Matrix>
         1512.22040658926                   0   -292.561375890783          -114484.57
       0.0252493795461683               -1536   0.215364933154248              216.84
       -0.116442443950232                   0  -0.993197441220474               -1000
    </Matrix>
  </Projection>
  <Projection>
    <GantryAngle>187.33727</GantryAngle>
    <ProjectionOffsetX>-114.49713</ProjectionOffsetX>
    <ProjectionOffsetY>0.22994</ProjectionOffsetY>
    <Matrix>
         1508.80018087682                   0   -309.721821905271          -114497.13
       0.0293655898825624               -1536   0.228057154526775              229.94
       -0.127709793348536                   0  -0.991811579224035               -1000
    </Matrix>
  </Projection>
  <Projection>
    <GantryAngle>187.87395</GantryAngle>
    <ProjectionOffsetX>-114.5146</ProjectionOffsetX>
    <ProjectionOffsetY>0.24363</ProjectionOffsetY>
    <Matrix>
         1505.83052867949                   0   -323.858012885309           -114514.6
       0.0333758941509984               -1536   0.241333020097999              243.63
       -0.136994188527679                   0  -0.990571851159542               -1000
    </Matrix>
  </Projection>
  <Projection>
    <GantryAngle>188.39079</GantryAngle>
    <ProjectionOffsetX>-114.52042</ProjectionOffsetX>
    <ProjectionOffsetY>0.25438</ProjectionOffsetY>
    <Matrix>
           1502.847073805                   0   -337.433844409124          -114520.42
       0.0371201487146132               -1536   0.251657066182146              254.38
       -0.145924006268626                   0  -0.989295802272765               -1000
    </Matrix>
  </Projection>
  <Projection>
    <GantryAngle>188.9157</GantryAngle>
    <ProjectionOffsetX>-114.51218</ProjectionOffsetX>
    <ProjectionOffsetY>0.26217</ProjectionOffsetY>
    <Matrix>
         1499.69395746396                   0   -351.179545694865          -114512.18
       0.0406313944581133               -1536    0.25900231405219              262.17
       -0.154981097982657                   0  -0.987917435451005               -1000
    </Matrix>
  </Projection>
  <Projection>
    <GantryAngle>189.45062</GantryAngle>
    <ProjectionOffsetX>-114.51083</ProjectionOffsetX>
    <ProjectionOffsetY>0.26899</ProjectionOffsetY>
    <Matrix>
         1496.35021558004                   0   -365.164021394291          -114510.83
       0.0441674911068229               -1536   0.265339127965192              268.99
       -0.164197520751043                   0  -0.986427480446085               -1000
    </Matrix>
  </Projection>
  <Projection>
    <GantryAngle>189.97783</GantryAngle>
    <ProjectionOffsetX>-114.52882</ProjectionOffsetX>
    <ProjectionOffsetY>0.27268</ProjectionOffsetY>
    <Matrix>
         1492.92372435269                   0   -378.934828005408          -114528.82
       0.0472464738265981               -1536   0.268555679722013              272.68
       -0.173267103662161                   0  -0.984874870624957               -1000
    </Matrix>
  </Projection>
  <Projection>
    <GantryAngle>190.51755</GantryAngle>
    <ProjectionOffsetX>-114.54214</ProjectionOffsetX>
    <ProjectionOffsetY>0.27875</ProjectionOffsetY>
    <Matrix>
         1489.28558464672                   0   -392.994082906163          -114542.14
       0.0508821032049528               -1536   0.274066732883509              278.75
       -0.182536693111938                   0  -0.983199041734561               -1000
    </Matrix>
  </Projection>
  <Projection>
    <GantryAngle>191.05699</GantryAngle>
    <ProjectionOffsetX>-114.51861</ProjectionOffsetX>
    <ProjectionOffsetY>0.30136</ProjectionOffsetY>
    <Matrix>
          1485.5241047451                   0   -406.974994634307          -114518.61
       0.0577964147545039               -1536   0.295765826358498              301.36
       -0.191785289203955                   0  -0.981436907215617               -1000
    </Matrix>
  </Projection>
  <Projection>
    <GantryAngle>191.604</GantryAngle>
    <ProjectionOffsetX>-114.49474</ProjectionOffsetX>
    <ProjectionOffsetY>0.32429</ProjectionOffsetY>
    <Matrix>
         1481.57582329728                   0     -421.1153349246          -114494.74
       0.0652297361919395               -1536   0.317661904572031              324.29
       -0.201146307909401                   0  -0.979561209325082               -1000
    </Matrix>
  </Projection>
  <Projection>
    <GantryAngle>192.14694</GantryAngle>
    <ProjectionOffsetX>-114.51548</ProjectionOffsetX>
    <ProjectionOffsetY>0.32683</ProjectionOffsetY>
    <Matrix>
         1477.51447232281                   0   -435.156040100868          -114515.48
       0.0687714211237995               -1536   0.319512660995794              326.83
        -0.21041954876786                   0  -0.977611177051659               -1000
    </Matrix>
  </Projection>
  <Projection>
    <GantryAngle>192.69444</GantryAngle>
    <ProjectionOffsetX>-114.53783</ProjectionOffsetX>
    <ProjectionOffsetY>0.32873</ProjectionOffsetY>
    <Matrix>
         1473.28395717814                   0   -449.276413828524          -114537.83
       0.0722389228062678               -1536   0.320694482228476              328.73
       -0.219751537146801                   0   -0.97555587329564               -1000
    </Matrix>
  </Projection>
  <Projection>
    <GantryAngle>193.24039</GantryAngle>
    <ProjectionOffsetX>-114.53165</ProjectionOffsetX>
    <ProjectionOffsetY>0.33063</ProjectionOffsetY>
    <Matrix>
         1468.93756823936                   0   -463.288160291998          -114531.65
        0.075726545152012               -1536   0.321841090072943              330.63
       -0.229037126552376                   0  -0.973417687665799               -1000
    </Matrix>
  </Projection>
  <Projection>
    <GantryAngle>193.77173</GantryAngle>
    <ProjectionOffsetX>-114.52104</ProjectionOffsetX>
    <ProjectionOffsetY>0.33247</ProjectionOffsetY>
    <Matrix>
         1464.58062740761                   0   -476.880125844031          -114521.04
       0.0791459019705256               -1536   0.322912104296621              332.47
       -0.238054266461713                   0  -0.971251855194818               -1000
    </Matrix>
  </Projection>
  <Projection>
    <GantryAngle>194.31749</GantryAngle>
    <ProjectionOffsetX>-114.50799</ProjectionOffsetX>
    <ProjectionOffsetY>0.3437</ProjectionOffsetY>
    <Matrix>
         1459.97505147188                   0   -490.796219273875          -114507.99
       0.0849952231373131               -1536   0.333024776921836               343.7
       -0.247294801097798                   0  -0.968940287814476               -1000
    </Matrix>
  </Projection>
  <Projection>
    <GantryAngle>194.83849</GantryAngle>
    <ProjectionOffsetX>-114.49474</ProjectionOffsetX>
    <ProjectionOffsetY>0.35787</ProjectionOffsetY>
    <Matrix>
         1455.45525595248                   0   -504.038732051399          -114494.74
       0.0916487857113579               -1536   0.345935596574902              357.87
       -0.256095190184586                   0   -0.96665156781765               -1000
    </Matrix>
  </Projection>
  <Projection>
    <GantryAngle>195.37698</GantryAngle>
    <ProjectionOffsetX>-114.48927</ProjectionOffsetX>
    <ProjectionOffsetY>0.37057</ProjectionOffsetY>
    <Matrix>
         1450.65532673265                   0   -517.689980555281          -114489.27
       0.0982635825133679               -1536   0.357304342615142              370.57
       -0.265168746831551                   0   -0.96420202017201               -1000
    </Matrix>
  </Projection>
  <Projection>
    <GantryAngle>195.90575</GantryAngle>
    <ProjectionOffsetX>-114.48973</ProjectionOffsetX>
    <ProjectionOffsetY>0.38166</ProjectionOffsetY>
    <Matrix>
         1445.81584688771                   0   -531.055962365418          -114489.73
        0.104596111529663               -1536   0.367047693158361              381.66
       -0.274055734239016                   0  -0.961713811136512               -1000
    </Matrix>
  </Projection>
  <Projection>
    <GantryAngle>196.44202</GantryAngle>
    <ProjectionOffsetX>-114.49409</ProjectionOffsetX>
    <ProjectionOffsetY>0.3936</ProjectionOffsetY>
    <Matrix>
         1440.78084416875                   0   -544.569055052987          -114494.09
        0.111406484284802               -1536   0.377504377801503               393.6
       -0.283044929585372                   0  -0.959106650918453               -1000
    </Matrix>
  </Projection>
  <Projection>
    <GantryAngle>196.93246</GantryAngle>
    <ProjectionOffsetX>-114.50266</ProjectionOffsetX>
    <ProjectionOffsetY>0.40533</ProjectionOffsetY>
    <Matrix>
          1436.0642241398                   0   -556.889938221929          -114502.66
        0.118050017351776               -1536   0.387758432923444              405.33
       -0.291244214224894                   0  -0.956648737876408               -1000
    </Matrix>
  </Projection>
  <Projection>
    <GantryAngle>197.46135</GantryAngle>
    <ProjectionOffsetX>-114.50493</ProjectionOffsetX>
    <ProjectionOffsetY>0.41633</ProjectionOffsetY>
    <Matrix>
         1430.86185396965                   0   -570.124314381373          -114504.93
        0.124924971716704               -1536   0.397145339065663              416.33
       -0.300062382525169                   0  -0.953919580778862               -1000
    </Matrix>
  </Projection>
  <Projection>
    <GantryAngle>197.99461</GantryAngle>
    <ProjectionOffsetX>-114.49187</ProjectionOffsetX>
    <ProjectionOffsetY>0.42379</ProjectionOffsetY>
    <Matrix>
         1425.49776452051                   0   -583.404243765086          -114491.87
        0.130920395410135               -1536   0.403060558930856              423.79
       -0.308927524033447                   0  -0.951085582318733               -1000
    </Matrix>
  </Projection>
  <Projection>
    <GantryAngle>198.53137</GantryAngle>
    <ProjectionOffsetX>-114.48568</ProjectionOffsetX>
    <ProjectionOffsetY>0.43339</ProjectionOffsetY>
    <Matrix>
         1419.97179403256                   0   -596.726968618836          -114485.68
        0.137741667647755               -1536   0.410918635612472              433.39
       -0.317823825302279                   0  -0.948149785672194               -1000
    </Matrix>
  </Projection>
  <Projection>
    <GantryAngle>199.07111</GantryAngle>
    <ProjectionOffsetX>-114.51271</ProjectionOffsetX>
    <ProjectionOffsetY>0.45296</ProjectionOffsetY>
    <Matrix>
         1414.27872969279                   0    -610.10231559149          -114512.71
         0.14800077999213               -1536   0.428098739453553              452.96
       -0.326741389950834                   0  -0.945113783675276               -1000
    </Matrix>
  </Projection>
  <Projection>
    <GantryAngle>199.60353</GantryAngle>
    <ProjectionOffsetX>-114.53918</ProjectionOffsetX>
    <ProjectionOffsetY>0.47218</ProjectionOffsetY>
    <Matrix>
         1408.53950435539                   0   -623.242880765881          -114539.18
        0.158420927361167               -1536   0.444810928568564              472.18
       -0.335509609388722                   0  -0.942036783787038               -1000
    </Matrix>
  </Projection>
  <Projection>
    <GantryAngle>200.14282</GantryAngle>
    <ProjectionOffsetX>-114.55183</ProjectionOffsetX>
    <ProjectionOffsetY>0.48483</ProjectionOffsetY>
    <Matrix>
         1402.60663923976                   0   -636.484671706162          -114551.83
        0.166956752409287               -1536   0.455176418243459              484.83
       -0.344361430623697                   0  -0.938837155793698               -1000
    </Matrix>
  </Projection>
  <Projection>
    <GantryAngle>200.68413</GantryAngle>
    <ProjectionOffsetX>-114.56453</ProjectionOffsetX>
    <ProjectionOffsetY>0.49753</ProjectionOffsetY>
    <Matrix>
         1396.52636726162                   0   -649.719275593067          -114564.53
        0.175735420866038               -1536   0.465460162369495              497.53
       -0.353215727425557                   0  -0.935541901733554               -1000
    </Matrix>
  </Projection>
  <Projection>
    <GantryAngle>201.22887</GantryAngle>
    <ProjectionOffsetX>-114.57264</ProjectionOffsetX>
    <ProjectionOffsetY>0.50523</ProjectionOffsetY>
    <Matrix>
         1390.28319605339                   0   -662.974754125773          -114572.64
        0.182940903320686               -1536   0.470945834244461              505.23
       -0.362094300260646                   0  -0.932141468726048               -1000
    </Matrix>
  </Projection>
  <Projection>
    <GantryAngle>201.77815</GantryAngle>
    <ProjectionOffsetX>-114.58021</ProjectionOffsetX>
    <ProjectionOffsetY>0.51232</ProjectionOffsetY>
    <Matrix>
         1383.86082828102                   0    -676.27940414669          -114580.21
        0.190077752289049               -1536   0.475754380415717              512.32
       -0.371013726360573                   0  -0.928627382135613               -1000
    </Matrix>
  </Projection>
  <Projection>
    <GantryAngle>202.31972</GantryAngle>
    <ProjectionOffsetX>-114.5731</ProjectionOffsetX>
    <ProjectionOffsetY>0.51934</ProjectionOffsetY>
    <Matrix>
         1377.40949009234                   0   -689.322922763472           -114573.1
        0.197232127644017               -1536   0.480430560461149              519.34
         -0.3797745747372                   0  -0.925079062774193               -1000
    </Matrix>
  </Projection>
  <Projection>
    <GantryAngle>202.86899</GantryAngle>
    <ProjectionOffsetX>-114.56123</ProjectionOffsetX>
    <ProjectionOffsetY>0.52646</ProjectionOffsetY>
    <Matrix>
          1370.7426687718                   0   -702.484741063812          -114561.23
        0.204595687613049               -1536   0.485078072283363              526.46
       -0.388625323126257                   0  -0.921395874868676               -1000
    </Matrix>
  </Projection>
  <Projection>
    <GantryAngle>203.40309</GantryAngle>
    <ProjectionOffsetX>-114.55847</ProjectionOffsetX>
    <ProjectionOffsetY>0.53135</ProjectionOffsetY>
    <Matrix>
         1364.13587952168                   0   -715.229295576151          -114558.47
        0.211050830616789               -1536   0.487637538952821              531.35
       -0.397197385182626                   0  -0.917733205895964               -1000
    </Matrix>
  </Projection>
  <Projection>
    <GantryAngle>203.94508</GantryAngle>
    <ProjectionOffsetX>-114.56083</ProjectionOffsetX>
    <ProjectionOffsetY>0.53513</ProjectionOffsetY>
    <Matrix>
         1357.30827133566                   0    -728.10331707396          -114560.83
         0.21718828520651               -1536   0.489073987929286              535.13
       -0.405860791221778                   0  -0.913934909142239               -1000
    </Matrix>
  </Projection>
  <Projection>
    <GantryAngle>204.48035</GantryAngle>
    <ProjectionOffsetX>-114.56364</ProjectionOffsetX>
    <ProjectionOffsetY>0.54545</ProjectionOffsetY>
    <Matrix>
         1350.44587110177                   0   -740.754194611298          -114563.64
        0.226024193089302               -1536   0.496415921016168              545.45
       -0.414381140506558                   0  -0.910103439391635               -1000
    </Matrix>
  </Projection>
  <Projection>
    <GantryAngle>205.0148</GantryAngle>
    <ProjectionOffsetX>-114.56694</ProjectionOffsetX>
    <ProjectionOffsetY>0.5624</ProjectionOffsetY>
    <Matrix>
         1343.47613512581                   0   -753.321616634208          -114566.94
        0.237812164368569               -1536   0.509646087474766               562.4
       -0.422852354851652                   0  -0.906198590815729               -1000
    </Matrix>
  </Projection>
  <Projection>
    <GantryAngle>205.53778</GantryAngle>
    <ProjectionOffsetX>-114.56966</ProjectionOffsetX>
    <ProjectionOffsetY>0.57694</ProjectionOffsetY>
    <Matrix>
         1336.54298132238                   0   -765.555397127075          -114569.66
        0.248722384907274               -1536   0.520573663227442              576.94
       -0.431106154725402                   0  -0.902301215425247               -1000
    </Matrix>
  </Projection>
  <Projection>
    <GantryAngle>206.07376</GantryAngle>
    <ProjectionOffsetX>-114.57152</ProjectionOffsetX>
    <ProjectionOffsetY>0.58811</ProjectionOffsetY>
    <Matrix>
         1329.32231245927                   0   -778.026235285828          -114571.52
        0.258490723920782               -1536   0.528257435108026              588.11
         -0.4395278500974                   0  -0.898228962452646               -1000
    </Matrix>
  </Projection>
  <Projection>
    <GantryAngle>206.60336</GantryAngle>
    <ProjectionOffsetX>-114.57519</ProjectionOffsetX>
    <ProjectionOffsetY>0.59636</ProjectionOffsetY>
    <Matrix>
         1322.07248285718                   0   -790.283382234104          -114575.19
          0.2670568798634               -1536   0.533222160565018              596.36
        -0.44781152301194                   0  -0.894127977337544               -1000
    </Matrix>
  </Projection>
  <Projection>
    <GantryAngle>207.12961</GantryAngle>
    <ProjectionOffsetX>-114.58633</ProjectionOffsetX>
    <ProjectionOffsetY>0.59311</ProjectionOffsetY>
    <Matrix>
         1314.75314908058                   0   -802.402756728536          -114586.33
           0.270461066968               -1536   0.527854414923784              593.11
       -0.456004901229115                   0  -0.889977263785444               -1000
    </Matrix>
  </Projection>
  <Projection>
    <GantryAngle>207.65797</GantryAngle>
    <ProjectionOffsetX>-114.5965</ProjectionOffsetX>
    <ProjectionOffsetY>0.59015</ProjectionOffsetY>
    <Matrix>
         1307.29317669999                   0    -814.50163165331           -114596.5
        0.273943162385897               -1536   0.522716143123602              590.15
       -0.464192429697359                   0  -0.885734377910027               -1000
    </Matrix>
  </Projection>
  <Projection>
    <GantryAngle>208.19833</GantryAngle>
    <ProjectionOffsetX>-114.58514</ProjectionOffsetX>
    <ProjectionOffsetY>0.59346</ProjectionOffsetY>
    <Matrix>
          1299.5589056572                   0   -826.784376385934          -114585.14
        0.280424732385097               -1536   0.523026520423914              593.46
       -0.472525077317928                   0  -0.881317225127074               -1000
    </Matrix>
  </Projection>
  <Projection>
    <GantryAngle>208.73447</GantryAngle>
    <ProjectionOffsetX>-114.57387</ProjectionOffsetX>
    <ProjectionOffsetY>0.59675</ProjectionOffsetY>
    <Matrix>
         1291.77098269796                   0   -838.898623163914          -114573.87
        0.286888227750006               -1536   0.523264471637871              596.75
       -0.480751114788448                   0  -0.876857095329487               -1000
    </Matrix>
  </Projection>
  <Projection>
    <GantryAngle>209.27753</GantryAngle>
    <ProjectionOffsetX>-114.57779</ProjectionOffsetX>
    <ProjectionOffsetY>0.60049</ProjectionOffsetY>
    <Matrix>
         1283.75992500436                   0   -851.107822143643          -114577.79
        0.293663875762259               -1536   0.523784085451523              600.49
       -0.489040409935651                   0  -0.872261129163722               -1000
    </Matrix>
  </Projection>
  <Projection>
    <GantryAngle>209.81096</GantryAngle>
    <ProjectionOffsetX>-114.58289</ProjectionOffsetX>
    <ProjectionOffsetY>0.60419</ProjectionOffsetY>
    <Matrix>
         1275.77796019873                   0    -863.02713453977          -114582.89
        0.300366983446168               -1536   0.524237762237183              604.19
       -0.497139945126811                   0  -0.867670372295442               -1000
    </Matrix>
  </Projection>
  <Projection>
    <GantryAngle>210.34753</GantryAngle>
    <ProjectionOffsetX>-114.58181</ProjectionOffsetX>
    <ProjectionOffsetY>0.61048</ProjectionOffsetY>
    <Matrix>
         1267.64050634745                   0    -874.93573355422          -114581.81
        0.308441164345672               -1536    0.52683002812775              610.48
        -0.50524368422499                   0  -0.862976720167328               -1000
    </Matrix>
  </Projection>
  <Projection>
    <GantryAngle>210.89156</GantryAngle>
    <ProjectionOffsetX>-114.57897</ProjectionOffsetX>
    <ProjectionOffsetY>0.61757</ProjectionOffsetY>
    <Matrix>
         1259.27733107343                   0    -886.93006703507          -114578.97
        0.317069608024659               -1536   0.529961855766138              617.57
       -0.513414848559125                   0  -0.858140544013049               -1000
    </Matrix>
  </Projection>
  <Projection>
    <GantryAngle>211.43561</GantryAngle>
    <ProjectionOffsetX>-114.57954</ProjectionOffsetX>
    <ProjectionOffsetY>0.62829</ProjectionOffsetY>
    <Matrix>
          1250.7985778028                   0   -898.847811786342          -114579.54
        0.327678381067196               -1536   0.536073878006737              628.29
       -0.521540023026303                   0  -0.853226818836424               -1000
    </Matrix>
  </Projection>
  <Projection>
    <GantryAngle>211.97829</GantryAngle>
    <ProjectionOffsetX>-114.58186</ProjectionOffsetX>
    <ProjectionOffsetY>0.64087</ProjectionOffsetY>
    <Matrix>
         1242.22788758558                   0   -910.656289686573          -114581.86
        0.339403400702526               -1536   0.543617226080595              640.87
       -0.529597891463987                   0  -0.848248827501046               -1000
    </Matrix>
  </Projection>
  <Projection>
    <GantryAngle>212.52208</GantryAngle>
    <ProjectionOffsetX>-114.58516</ProjectionOffsetX>
    <ProjectionOffsetY>0.64988</ProjectionOffsetY>
    <Matrix>
         1233.52732369854                   0   -922.407773482717          -114585.16
         0.34939146536865               -1536   0.547968628962961              649.88
       -0.537624585105943                   0  -0.843184324741431               -1000
    </Matrix>
  </Projection>
  <Projection>
    <GantryAngle>213.07184</GantryAngle>
    <ProjectionOffsetX>-114.58942</ProjectionOffsetX>
    <ProjectionOffsetY>0.65556</ProjectionOffsetY>
    <Matrix>
         1224.61773690185                   0   -934.204545932705          -114589.42
        0.357732647272832               -1536   0.549350768339475              655.56
       -0.545690169126902                   0   -0.83798701619909               -1000
    </Matrix>
  </Projection>
  <Projection>
    <GantryAngle>213.61618</GantryAngle>
    <ProjectionOffsetX>-114.58776</ProjectionOffsetX>
    <ProjectionOffsetY>0.66214</ProjectionOffsetY>
    <Matrix>
